kordinat
1 tile = 50px

tile 1 = 500, 208

Kordinatnya salah deh, masih ikutin urutan dari kiri ke kanan
bukan sesuai dengan urutan angka boardnya sendiri
saran : check lagi Kordinatnya 
pemrograman bagian itungin angkanya salah deh

cara buat ladder ato snake
buat div, kasi width 4px, heightnya serah, backgroundnya serah, positionnya absolute  
snake bg colornya ijo, ladder bg colornya merah

saran kedepan :
pembuatannya lebih efektif lagi pake dynamic ato class
canvas dll

Ladder
  4 (358 500) 14(508 450),
  8 (558 500): 30(658 400),
  21(208 400): 42(258 300),
  28(558 400): 76(150 408),
  50(658 300): 67(508 200),
  71(658 150): 92(608 50),
  80 (208 150): 99(258 50),

snake
  32(608 350): 10(658 500),
  34(508 350): 6(458 500),
  48(558 300): 26(458 400),
  62(258 200): 18(308 450),
  88(558 100): 24(358 400),
  95(458 50): 56(408 250),
  97(358 50): 78(308 150),

0 0 208 500 1
0 1 258 500 2
0 2 308 500 3
0 3 358 500 4
0 4 408 500 5
0 5 458 500 6
0 6 508 500 7
0 7 558 500 8
0 8 608 500 9
0 9 658 500 10
1 0 658 450 11
1 1 608 450 12
1 2 558 450 13
1 3 508 450 14
1 4 458 450 15
1 5 408 450 16
1 6 358 450 17
1 7 308 450 18
1 8 258 450 19
1 9 208 450 20
2 0 208 400 21
2 1 258 400 22
2 2 308 400 23
2 3 358 400 24
2 4 408 400 25
2 5 458 400 26
2 6 508 400 27
2 7 558 400 28
2 8 608 400 29
2 9 658 400 30
3 0 658 350 31
3 1 608 350 32
3 2 558 350 33
3 3 508 350 34
3 4 458 350 35
3 5 408 350 36
3 6 358 350 37
3 7 308 350 38
3 8 258 350 39
3 9 208 350 40
4 0 208 300 41
4 1 258 300 42
4 2 308 300 43
4 3 358 300 44
4 4 408 300 45
4 5 458 300 46
4 6 508 300 47
4 7 558 300 48
4 8 608 300 49
4 9 658 300 50
5 0 658 250 51
5 1 608 250 52
5 2 558 250 53
5 3 508 250 54
5 4 458 250 55
5 5 408 250 56
5 6 358 250 57
5 7 308 250 58
5 8 258 250 59
5 9 208 250 60
6 0 208 200 61
6 1 258 200 62
6 2 308 200 63
6 3 358 200 64
6 4 408 200 65
6 5 458 200 66
6 6 508 200 67
6 7 558 200 68
6 8 608 200 69
6 9 658 200 70
7 0 658 150 71
7 1 608 150 72
7 2 558 150 73
7 3 508 150 74
7 4 458 150 75
7 5 408 150 76
7 6 358 150 77
7 7 308 150 78
7 8 258 150 79
7 9 208 150 80
8 0 208 100 81
8 1 258 100 82
8 2 308 100 83
8 3 358 100 84
8 4 408 100 85
8 5 458 100 86
8 6 508 100 87
8 7 558 100 88
8 8 608 100 89
8 9 658 100 90
9 0 658 50 91
9 1 608 50 92
9 2 558 50 93
9 3 508 50 94
9 4 458 50 95
9 5 408 50 96
9 6 358 50 97
9 7 308 50 98
9 8 258 50 99
9 9 208 50 100